t [s],T [N]
0.0,0.0
0.01,113.00333333333299
0.02,226.00666666666598
0.03,339.0100000000001
0.04,417.2872727272728
0.05,423.8321012658226
0.06,422.40665822784786
0.07,420.9812151898732
0.08,419.5557721518985
0.09,418.1303291139238
0.1,416.7048860759491
0.11,415.27944303797443
0.12,413.85400000000004
0.13,411.8010833333334
0.14,409.74816666666675
0.15,407.6952500000001
0.16,405.6423333333334
0.17,403.58941666666675
0.18,401.5365000000001
0.19,399.48358333333346
0.2,397.43066666666675
0.21,395.3777500000001
0.22,394.0644057971017
0.23,393.8604202898553
0.24,393.6564347826089
0.25,393.45244927536254
0.26,393.24846376811615
0.27,393.0444782608698
0.28,392.84049275362344
0.29,392.63650724637705
0.3,392.43252173913066
0.31,392.2285362318843
0.32,392.0245507246379
0.33,391.82056521739156
0.34,391.6165797101452
0.35000000000000003,391.4125942028988
0.36,390.38597902097905
0.37,388.8109440559441
0.38,387.2359090909091
0.39,385.66087412587416
0.4,384.08583916083916
0.41000000000000003,382.5108041958042
0.42,380.9357692307692
0.43,379.36073426573427
0.44,377.7856993006993
0.45,376.2106643356643
0.46,374.6356293706294
0.47000000000000003,373.0605944055944
0.48,371.4855594405594
0.49,369.9105244755244
0.5,368.54684523809533
0.51,367.6763293650795
0.52,366.80581349206363
0.53,365.93529761904773
0.54,365.0647817460318
0.55,364.194265873016
0.56,363.32375000000013
0.5700000000000001,362.4532341269842
0.58,361.5827182539684
0.59,360.7122023809525
0.6,359.84168650793663
0.61,358.9711706349207
0.62,358.1006547619049
0.63,357.230138888889
0.64,356.3596230158731
0.65,355.4891071428573
0.66,354.6185912698414
0.67,353.7480753968255
0.68,352.8775595238096
0.6900000000000001,352.0070436507938
0.7000000000000001,351.13652777777787
0.71,350.266011904762
0.72,349.3954960317461
0.73,348.5249801587303
0.74,347.6544642857144
0.75,346.7128972332018
0.76,345.1318695652176
0.77,343.5508418972334
0.78,341.9698142292492
0.79,340.388786561265
0.8,338.80775889328083
0.81,337.2267312252966
0.8200000000000001,335.64570355731246
0.8300000000000001,334.0646758893282
0.84,332.4836482213441
0.85,330.90262055335984
0.86,329.3215928853757
0.87,327.74056521739146
0.88,326.15953754940733
0.89,324.5785098814231
0.9,322.99748221343896
0.91,321.4164545454547
0.92,319.8354268774705
0.93,318.25439920948634
0.9400000000000001,316.67337154150215
0.9500000000000001,315.09234387351796
0.96,313.51131620553383
0.97,311.9302885375496
0.98,310.3492608695654
0.99,308.7682332015812
1.0,307.187205533597
1.01,305.92731284916255
1.02,304.7477039106151
1.03,303.56809497206757
1.04,302.3884860335201
1.05,301.20887709497265
1.06,300.02926815642513
1.07,298.8496592178777
1.08,297.67005027933016
1.09,296.4904413407827
1.1,295.3108324022352
1.11,294.1312234636877
1.12,292.95161452514026
1.1300000000000001,291.77200558659274
1.1400000000000001,290.5923966480453
1.1500000000000001,289.4127877094978
1.16,288.23317877095036
1.17,287.0535698324029
1.18,285.8739608938554
1.19,284.6943519553079
1.2,283.51474301676046
1.21,282.33513407821295
1.22,281.15552513966543
1.23,279.975916201118
1.24,278.7963072625705
1.25,277.616698324023
1.26,276.43708938547553
1.27,275.25748044692807
1.28,274.07787150838055
1.29,272.8982625698331
1.3,271.71865363128563
1.31,270.5390446927381
1.32,269.35943575419066
1.33,268.1798268156432
1.34,267.0002178770957
1.35,265.8206089385482
1.36,264.6410000000003
1.37,260.7474893617024
1.3800000000000001,256.85397872340457
1.3900000000000001,252.96046808510664
1.4000000000000001,249.06695744680883
1.41,245.17344680851102
1.42,241.2799361702131
1.43,237.38642553191517
1.44,233.49291489361735
1.45,229.59940425531943
1.46,222.05937499999777
1.47,212.0883333333311
1.48,202.1172916666644
1.49,192.14624999999774
1.5,182.17520833333106
1.51,177.12086956521773
1.52,173.29570652173948
1.53,169.47054347826122
1.54,165.64538043478296
1.55,161.8202173913047
1.56,157.99505434782645
1.57,154.1698913043482
1.58,150.34472826086983
1.59,146.51956521739157
1.6,142.69440217391332
1.61,138.86923913043506
1.62,135.0440760869568
1.6300000000000001,131.21891304347855
1.6400000000000001,127.3937500000003
1.6500000000000001,123.56858695652204
1.6600000000000001,119.74342391304378
1.67,115.91826086956564
1.68,112.09309782608727
1.69,109.05198107255467
1.7,107.1869337539427
1.71,105.32188643533073
1.72,103.4568391167187
1.73,101.59179179810673
1.74,99.72674447949476
1.75,97.86169716088273
1.76,95.99664984227076
1.77,94.13160252365878
1.78,92.26655520504676
1.79,90.40150788643479
1.8,88.53646056782276
1.81,86.67141324921079
1.82,84.80636593059882
1.83,82.94131861198679
1.84,81.07627129337482
1.85,79.21122397476285
1.86,77.34617665615082
1.87,75.48112933753885
1.8800000000000001,73.61608201892687
1.8900000000000001,71.75103470031485
1.9000000000000001,69.88598738170288
1.9100000000000001,68.0209400630909
1.92,66.15589274447893
1.93,64.29084542586696
1.94,62.425798107254934
1.95,60.56075078864296
1.96,58.695703470030935
1.97,56.830656151418964
1.98,54.96560883280699
1.99,53.100561514194965
2.0,51.235514195582994
2.0100000000000002,49.85188324873093
2.02,48.674573604060924
2.0300000000000002,47.497263959390835
2.04,46.3199543147208
2.05,45.1426446700508
2.06,43.96533502538071
2.07,42.78802538071068
2.08,41.61071573604062
2.09,40.433406091370586
2.1,39.2560964467005
2.11,38.07878680203049
2.12,36.901477157360404
2.13,35.72416751269037
2.14,34.54685786802031
2.15,33.36954822335028
2.16,32.19223857868019
2.17,31.014928934010186
2.18,29.837619289340125
2.19,28.660309644670065
2.2,27.48299999999972
2.21,24.734699999999748
2.22,21.986399999999662
2.23,19.23809999999969
2.24,16.489799999999605
2.25,13.741499999999746
2.2600000000000002,10.99319999999966
2.27,8.244899999999689
2.2800000000000002,5.496599999999603
2.29,2.748299999999631
2.3000000000000003,0.0
