t [s],x [m],y [m],vx,vy
0.0,0.0,0.0,0.0,0.0
0.001,9.114036466499872e-06,4.188818452912374e-05,0.00911403646649987,0.04188818452912374
0.002,2.7342109399499615e-05,0.00012566455358750016,0.01822807293299974,0.08377636905837643
0.003,5.4684224235742984e-05,0.0002513291255122922,0.027342114836243367,0.125664571924792
0.004,9.114186819575276e-05,0.0004188837820944971,0.03645764396000977,0.16755465658220492
0.005,0.00013671504127957932,0.0006283285233347997,0.04557317308382656,0.20944474124030255
0.006,0.00019140374348727295,0.0008796633492340127,0.05468870220769364,0.251334825899213
0.007,0.00025520797481888384,0.0011728882597930772,0.06380423133161092,0.29322491055906447
0.008,0.0003281277352744622,0.0015080032550130623,0.07291976045557833,0.33511499521998506
0.009000000000000001,0.00041016302485405795,0.001885008334895165,0.08203528957959574,0.3770050798821029
0.010000000000000002,0.000501313843557721,0.0023039034994407114,0.09115081870366308,0.41889516454554615
0.011,0.0006015801913855013,0.0027646887486511545,0.10026634782778025,0.4607852492104429
0.012,0.0007109620683374484,0.0032673640825280756,0.10938187695194718,0.5026753338769213
0.013000000000000001,0.0008294594744136122,0.003811929501073185,0.11849740607616374,0.5445654185451094
0.014000000000000002,0.0009570724096140421,0.004398385004288321,0.12761293520042988,0.5864555032151355
0.015,0.0010938008739387877,0.0050267305921754485,0.13672846432474547,0.6283455878871276
0.016,0.001239644867387898,0.005696966264736663,0.14584399344911045,0.6702356725612139
0.017,0.0013946043899614228,0.006409092021974185,0.1549595225735247,0.7121257572375225
0.018000000000000002,0.001558679441659411,0.007163107863890367,0.1640750516979881,0.7540158419161815
0.019000000000000003,0.0017318700224819117,0.007959013790487687,0.17319058082250063,0.7959059265973192
0.02,0.001914176132428974,0.00879680980176875,0.18230610994706217,0.8377960112810635
0.021,0.0021055977715006466,0.009676495897736292,0.19142163907167262,0.8796860959675427
0.022000000000000002,0.0023061349396969787,0.010598072078393177,0.20053716819633188,0.9215761806568848
0.023,0.0025157876370180184,0.011561538343742395,0.2096526973210399,0.9634662653492181
0.024,0.002734555863463815,0.012566894693787066,0.21876822644579652,1.0053563500446705
0.025,0.0029624396190344165,0.013614141128530436,0.2278837555706017,1.0472464347433703
0.026000000000000002,0.003199438903729872,0.014703277647975882,0.2369992846954553,1.0891365194454456
0.027000000000000003,0.0034455537175502294,0.015834304252126907,0.24611481382035727,1.1310266041510246
0.028,0.003700784060495537,0.017007220940987142,0.2552303429453075,1.1729166888602354
0.029,0.003965129932565843,0.01822202771456035,0.2643458720703059,1.214806773573206
0.030000000000000002,0.004238591333761195,0.019478724572850416,0.2734614011953524,1.2566968582900648
0.031,0.004521168264081642,0.020777311515861357,0.2825769303204469,1.2985869430109398
0.032,0.004812860723527232,0.022117788543597316,0.2916924594455893,1.340477027735959
0.033,0.005113668712098011,0.023500155656062567,0.3008079885707795,1.3823671124652506
0.034,0.005423592229794028,0.02492441285326151,0.3099235176960174,1.4242571971989428
0.035,0.005742631276615331,0.026390560135198672,0.3190390468213029,1.4661472819371637
0.036000000000000004,0.006070785852561967,0.027898597501878713,0.32815457594663594,1.5080373666800415
0.037000000000000005,0.006408055957633984,0.029448524953306417,0.33727010507201644,1.5499274514277042
0.038,0.0067544415918314275,0.031040342489486696,0.3463856341974443,1.59181753618028
0.039,0.007109942755154347,0.032674050110424596,0.35550116332291937,1.6337076209378971
0.04,0.007474559447602789,0.03434964781612528,0.3646166924484416,1.6755977057006837
0.041,0.0078482916691768,0.03606713560659405,0.37373222157401087,1.7174877904687675
0.042,0.008231139419876427,0.03782651348183633,0.3828477506996271,1.759377875242277
0.043000000000000003,0.008623102699701717,0.03962778144185767,0.3919632798252903,1.8012679600213404
0.044000000000000004,0.009024181508652718,0.041470939486663756,0.40107880895100023,1.8431580448060856
0.045,0.009434375846729475,0.043355987616260395,0.41019433807675687,1.8850481295966408
0.046,0.009853685713932034,0.04528292583065353,0.41930986720256014,1.9269382143931342
0.047,0.010282111110260445,0.04725175412984922,0.42842539632840987,1.9688282991956938
0.048,0.01071965203571475,0.04926247251385367,0.43754092545430606,2.010718384004448
0.049,0.011166308490294999,0.05131508098267319,0.44665645458024855,2.0526084688195247
0.05,0.011622080474001236,0.05340957953631424,0.4557719837062373,2.0944985536410523
0.051000000000000004,0.012086967986833508,0.0555459681747834,0.46488751283227214,2.1363886384691586
0.052000000000000005,0.01256097102879186,0.05772424689808737,0.4740030419583531,2.178278723303972
0.053000000000000005,0.01304408959987634,0.05994441570623299,0.48311857108448,2.2201688081456203
0.054,0.013536323700086993,0.06220647459922722,0.4922341002106527,2.262058892994232
0.055,0.014037673329423864,0.06451042357707716,0.5013496293368712,2.303948977849935
0.056,0.014548138487886999,0.06685626263979001,0.5104651584631354,2.3458390627128574
0.057,0.015067719175476444,0.06924399178737314,0.5195806875894452,2.3877291475831273
0.058,0.015596415392192245,0.07167361101983402,0.5286962167158005,2.429619232460873
0.059000000000000004,0.016134227138034446,0.07414512033718025,0.5378117458422011,2.471509317346223
0.060000000000000005,0.016681154413003094,0.07665851973941956,0.5469272749686471,2.5133994022393047
0.061,0.01723719721709823,0.07921380922655981,0.5560428040951384,2.5552894871402465
0.062,0.017802355550319907,0.08181098879860899,0.5651583332216747,2.5971795720491766
0.063,0.018376629412668162,0.08445005845557521,0.5742738623482562,2.6390696569662233
0.064,0.018960018804143046,0.08713101819746673,0.5833893914748826,2.6809597418915145
0.065,0.0195525237247446,0.0898538680242919,0.5925049206015538,2.722849826825178
0.066,0.02015414417447287,0.09261860793605925,0.6016204497282698,2.7647399117673426
0.067,0.0207648801533279,0.09542523793277738,0.6107359788550304,2.806629996718136
0.068,0.021384731661309733,0.09827375801445506,0.6198515079818356,2.8485200816776866
0.069,0.02201369869841842,0.10116416818110119,0.6289670371086853,2.8904101666461224
0.07,0.022651781264654,0.10409646843272476,0.6380825662355794,2.9323002516235714
0.07100000000000001,0.023298979360016518,0.10707065876933491,0.6471980953625177,2.974190336610162
0.07200000000000001,0.023955292984506018,0.11008673919094093,0.6563136244895003,3.016080421606022
0.07300000000000001,0.024620722138122546,0.1131447096975522,0.665429153616527,3.05797050661128
0.074,0.025295266820866143,0.11624457028917827,0.6745446827435977,3.099860591626064
0.075,0.025978927032736854,0.11938632096582877,0.6836602118707124,3.1417506766505023
0.076,0.026671702773734724,0.12256996172751349,0.6927757409978709,3.1836407616847224
0.077,0.0273735940438598,0.12579549257424233,0.7018912701250731,3.225530846728853
0.078,0.02808460084311212,0.12906291350602536,0.711006799252319,3.267420931783022
0.079,0.028804723171491728,0.13237222452287273,0.7201223283796084,3.3093110168473574
0.08,0.02953396102899867,0.13572342562479472,0.7292378575069414,3.3512011019219874
0.081,0.030272314415632988,0.13911651681180176,0.7383533866343176,3.39309118700704
0.082,0.031019783331394726,0.1425514980839044,0.7474689157617371,3.434981272102644
0.083,0.031776367776283926,0.14602836944111333,0.7565844448891998,3.476871357208927
0.084,0.03254206775030063,0.14954713088343935,0.7656999740167056,3.518761442326017
0.085,0.03331688325344488,0.1531077824108934,0.7748155031442545,3.5606515274540427
0.08600000000000001,0.03410081428571673,0.15671032402348653,0.7839310322718462,3.6025416125931318
0.08700000000000001,0.03489386084711621,0.16035475572122995,0.7930465613994808,3.6444316977434124
0.08800000000000001,0.03569602293764337,0.16404107750413496,0.8021620905271581,3.686321782905013
0.089,0.03650730055729824,0.16776928937221303,0.8112776196548781,3.728211868078061
0.09,0.03732769370608088,0.17153939132547572,0.8203931487826406,3.770101953262685
0.091,0.038157202383991326,0.17535138336393472,0.8295086779104455,3.8119920384590134
0.092,0.03899582659102962,0.17920526548760188,0.8386242070382928,3.853882123667174
0.093,0.0398435663271958,0.18310103769648917,0.8477397361661824,3.895772208887295
0.094,0.04070042159248992,0.18703869999060868,0.8568552652941142,3.9376622941195043
0.095,0.04156639238691201,0.1910182523699726,0.865970794422088,3.9795523793639305
0.096,0.04244147871046211,0.1950396948345933,0.8750863235501039,4.021442464620701
0.097,0.04332568056314027,0.19910302738448324,0.8842018526781615,4.063332549889945
0.098,0.04421899794494653,0.20320825001965503,0.8933173818062611,4.10522263517179
0.099,0.045121430855880926,0.2073553627401214,0.9024329109344023,4.147112720466365
0.1,0.04603297929594351,0.2115443655458952,0.9115484400625851,4.1890028057737965
0.101,0.046953643265134314,0.21577525843698941,0.9206639691908094,4.230892891094213
0.10200000000000001,0.047883422763453386,0.22004804141341716,0.9297794983190752,4.272782976427744
0.10300000000000001,0.048822317790900766,0.22436271447519168,0.9388950274473824,4.314673061774517
0.10400000000000001,0.049770328347476495,0.22871927762232636,0.9480105565757309,4.3565631471346595
0.10500000000000001,0.050727454433180615,0.23311773085483464,0.9571260857041204,4.3984532325083
0.106,0.05169369604801317,0.2375580741727302,0.966241614832551,4.440343317895566
0.107,0.05266905319197419,0.2420403075760268,0.9753571439610226,4.482233403296587
0.108,0.05365352586506372,0.24656443106473827,0.9844726730895351,4.52412348871149
0.109,0.05464711406728181,0.2511304446388787,0.9935882022180884,4.5660135741404035
0.11,0.055649817798628494,0.25573834829846215,1.0027037313466824,4.607903659583456
0.111,0.05666163705910381,0.2603881420435029,1.0118192604753171,4.649793745040775
0.112,0.05768257184870781,0.2650798258740154,1.0209347896039922,4.691683830512488
0.113,0.05871262216744051,0.2698133997900141,1.0300503187327077,4.733573915998726
0.114,0.059751788015301975,0.27458886379151376,1.0391658478614636,4.775464001499614
0.115,0.06080006939229223,0.27940621787852904,1.0482813769902597,4.817354087015282
0.116,0.06185746629841133,0.2842654620510749,1.057396906119096,4.859244172545857
0.117,0.0629239787336593,0.28916659630916636,1.0665124352479722,4.901134258091467
0.11800000000000001,0.0639996066980362,0.2941096206528186,1.0756279643768885,4.943024343652241
0.11900000000000001,0.06508435019154205,0.2990945350820469,1.0847434935058446,4.984914429228307
0.12000000000000001,0.06617820921417689,0.3041213395968667,1.0938590226348406,5.026804514819793
0.121,0.06728118376594076,0.3091900341972935,1.1029745517638763,5.068694600426827
0.122,0.06839327384683372,0.31430061888334304,1.1120900808929515,5.110584686049537
0.123,0.06951447945685578,0.3194530936550311,1.1212056100220662,5.152474771688052
0.124,0.070644800596007,0.3246474585123736,1.1303211391512202,5.194364857342499
0.125,0.07178423726428741,0.3298837134553866,1.1394366682804136,5.236254943013008
0.126,0.07293278946169705,0.3351618584840863,1.1485521974096462,5.278145028699705
0.127,0.07409045718823597,0.340481893598489,1.157667726538918,5.320035114402719
0.128,0.0752572404439042,0.3458438187986112,1.1667832556682287,5.361925200122178
0.129,0.07643313922870178,0.3512476340844694,1.1758987847975784,5.40381528585821
0.13,0.07761815354262874,0.35669333945608034,1.1850143139269669,5.445705371610943
0.131,0.07881228338568513,0.3621809349134608,1.1941298430563942,5.487595457380506
0.132,0.08001552875787099,0.36771042045662783,1.2032453721858603,5.529485543167026
0.133,0.08122788965918636,0.37328179608559847,1.212360901315365,5.571375628970633
0.134,0.08244936608963127,0.3788950618003899,1.221476430444908,5.613265714791453
0.135,0.08367995804920576,0.38455021760101954,1.2305919595744894,5.655155800629615
0.136,0.08491966553790987,0.39024726348750477,1.239707488704109,5.697045886485247
0.137,0.08616848855574365,0.39598619945986324,1.248823017833767,5.738935972358477
0.138,0.08742642710270711,0.40176702551811266,1.257938546963463,5.780826058249434
0.139,0.0886934811788003,0.4075897416622709,1.267054076093197,5.822716144158245
0.14,0.08996965078402326,0.41345434789235597,1.276169605222969,5.864606230085039
0.14100000000000001,0.09125493591837604,0.41936084420838593,1.285285134352779,5.906496316029944
0.14200000000000002,0.09254933658185867,0.425309230610379,1.2944006634826266,5.948386401993088
0.14300000000000002,0.09385285277447118,0.43129950709835363,1.3035161926125118,5.990276487974598
0.14400000000000002,0.09516548449621362,0.4373316736723282,1.3126317217424346,6.032166573974604
0.14500000000000002,0.09648723174708601,0.44340573033232145,1.3217472508723949,6.074056659993233
0.146,0.09781809452708841,0.44952167707835206,1.3308627800023924,6.115946746030613
0.147,0.09915807283622084,0.4556795139104389,1.3399783091324273,6.157836832086874
0.148,0.10050716667448334,0.46187924082860105,1.3490938382624995,6.199726918162141
0.149,0.10186537604187595,0.4681208578328576,1.3582093673926088,6.241617004256545
0.15,0.10323270093839872,0.47440436492322785,1.3673248965227551,6.283507090370213
0.151,0.10460914136405165,0.4807297620997311,1.3764404256529383,6.325397176503272
0.152,0.1059946973188348,0.48709704936238696,1.3855559547831584,6.367287262655852
0.153,0.10738936880274821,0.493506226711215,1.394671483913415,6.40917734882808
0.154,0.10879315581579192,0.49995729414623513,1.4037870130437085,6.451067435020085
0.155,0.11020605835796596,0.5064502516674672,1.4129025421740384,6.492957521231994
0.156,0.11162807642927036,0.5129850992749311,1.4220180713044048,6.534847607463936
0.157,0.11305921002970518,0.5195618369686471,1.4311336004348076,6.576737693716039
0.158,0.11449945915927043,0.5261804647486356,1.4402491295652466,6.618627779988431
0.159,0.11594882381796615,0.5328409826149167,1.4493646586957218,6.66051786628124
0.16,0.11740730400579238,0.5395433905675113,1.458480187826233,6.702407952594594
0.161,0.11887489972274916,0.54628768860644,1.4675957169567801,6.744298038928623
0.162,0.12035161096883652,0.5530738767317234,1.4767112460873633,6.786188125283452
0.163,0.1218374377440545,0.5599019549433826,1.4858267752179821,6.828078211659212
0.164,0.12333238004840315,0.5667719232414387,1.4949423043486367,6.869968298056029
0.165,0.12483643788188248,0.5736837816259127,1.504057833479327,6.911858384474032
0.166,0.12634961124449254,0.5806375300968261,1.513173362610053,6.953748470913349
0.167,0.12787190013623334,0.5876331686542001,1.5222888917408142,6.995638557374109
0.168,0.12940330455710494,0.5946706972980565,1.5314044208716107,7.037528643856439
0.169,0.1309438245071074,0.601750116028417,1.5405199500024425,7.079418730360468
0.17,0.1324934599862407,0.6088714248453033,1.5496354791333096,7.121308816886323
0.171,0.13405221099450493,0.6160346237487374,1.5587510082642115,7.163198903434132
0.17200000000000001,0.13562007753190009,0.6232397127387415,1.5678665373951486,7.205088990004025
0.17300000000000001,0.1371970595984262,0.6304866918153376,1.5769820665261205,7.246979076596129
0.17400000000000002,0.13878315719408332,0.6377755609785482,1.5860975956571273,7.288869163210572
0.17500000000000002,0.1403783703188715,0.6451063202283956,1.5952131247881687,7.330759249847482
0.17600000000000002,0.14198269897279073,0.6524789695649026,1.6043286539192447,7.372649336506988
0.177,0.14359614315584107,0.6598935089880918,1.6134441830503552,7.4145394231892165
0.178,0.14521870286802258,0.6673499384979862,1.6225597121815,7.456429509894297
0.179,0.14685037810933527,0.6748482580946086,1.6316752413126794,7.498319596622358
0.18,0.14849116887977917,0.6823884677779821,1.6407907704438929,7.540209683373527
0.181,0.15014107517935432,0.68997056754813,1.6499062995751406,7.582099770147932
0.182,0.15180009700806074,0.6975945574050757,1.6590218287064222,7.6239898569457
0.183,0.1534682343658985,0.7052604373488427,1.6681373578377379,7.665879943766961
0.184,0.1551454872528676,0.7129682073794545,1.6772528869690875,7.707770030611843
0.185,0.15683185566896807,0.720717867496935,1.6863684161004708,7.749660117480473
0.186,0.15852733961419996,0.728509417701308,1.695483945231888,7.79155020437298
0.187,0.16023193908856329,0.7363428579925975,1.7045994743633386,7.833440291289492
0.188,0.1619456540920581,0.7442181883708276,1.7137150034948228,7.875330378230137
0.189,0.16366848462468445,0.7521354088360227,1.7228305326263402,7.917220465195043
0.19,0.16540043068644233,0.760094519388207,1.731946061757891,7.959110552184338
0.191,0.1671414922773318,0.7680955200274052,1.741061590889475,8.001000639198152
0.192,0.1688916693973529,0.7761384107536419,1.7501771200210923,8.04289072623661
0.193,0.17065096204650565,0.7842231915669418,1.7592926491527425,8.084780813299842
0.194,0.17241937022479006,0.7923498624673297,1.7684081782844256,8.126670900387976
0.195,0.1741968939322062,0.8005184234548309,1.7775237074161416,8.16856098750114
0.196,0.1759835331687541,0.8087288745294704,1.7866392365478905,8.210451074639462
0.197,0.17777928793443376,0.8169812156912735,1.795754765679672,8.25234116180307
0.198,0.17958415822924526,0.8252754469402656,1.804870294811486,8.294231248992093
0.199,0.18139814405318858,0.8336115682764722,1.8139858239433326,8.336121336206658
0.2,0.18322124540626378,0.841989579699919,1.8231013530752116,8.378011423446893
0.201,0.1850534622884709,0.850409481210632,1.8322168822071228,8.419901510712927
0.202,0.18689479469980996,0.8588712728086368,1.841332411339066,8.461791598004888
0.203,0.188745242640281,0.8673749544939597,1.8504479404710417,8.503681685322904
0.20400000000000001,0.19060480610988406,0.8759205262666269,1.8595634696030492,8.545571772667104
0.20500000000000002,0.19247348510861914,0.8845079881266644,1.8686789987350887,8.587461860037616
0.20600000000000002,0.1943512796364863,0.893137340074099,1.87779452786716,8.629351947434566
0.20700000000000002,0.19623818969348555,0.901808582108957,1.886910056999263,8.671242034858084
0.20800000000000002,0.19813421527961694,0.9105217142312653,1.8960255861313977,8.713132122308297
0.20900000000000002,0.20003935639488052,0.9192767364410506,1.905141115263564,8.755022209785334
0.21,0.20195361303927628,0.9280736487383399,1.9142566443957618,8.796912297289323
0.211,0.20387698521280428,0.9369124511231602,1.923372173527991,8.838802384820392
0.212,0.20580947291546453,0.9457931435955389,1.9324877026602514,8.88069247237867
0.213,0.20775107614725707,0.9547157261555032,1.9416032317925431,8.922582559964283
0.214,0.20970179490818194,0.9636801988030805,1.950718760924866,8.964472647577361
0.215,0.21166162919823917,0.9726865615382986,1.9598342900572197,9.006362735218032
0.216,0.21363057901742877,0.981734814361185,1.9689498191896042,9.048252822886424
0.217,0.21560864436575078,0.9908249572717677,1.9780653483220196,9.090142910582664
0.218,0.21759582524320525,0.9999569902700746,1.987180877454466,9.132032998306881
0.219,0.2195921216497922,1.0091309133561337,1.9962964065869429,9.173923086059204
0.22,0.22159753358551165,1.0183467265299735,2.0054119357194504,9.21581317383976
0.221,0.22361206105036363,1.0276044297916223,2.014527464851988,9.257703261648675
0.222,0.22563570404434818,1.0369040231411084,2.0236429939845566,9.299593349486083
0.223,0.22766846256746534,1.0462455065784606,2.032758523117155,9.341483437352107
0.224,0.22971033661971513,1.0556288801037075,2.041874052249784,9.383373525246876
0.225,0.23176132620109757,1.065054143716878,2.0509895813824426,9.42526361317052
0.226,0.2338214313116127,1.0745212974180012,2.0601051105151313,9.467153701123166
0.227,0.23589065195126055,1.0840303412071062,2.06922063964785,9.509043789104943
0.228,0.23796898812004114,1.0935812750842222,2.078336168780598,9.550933877115977
0.229,0.24005643981795452,1.1031740990493786,2.087451697913376,9.592823965156398
